Time (s),Channel 1 (V),Channel 2 (V),Math 1 (A)
-2.5,0.8709383421946775,0.9639731875385423,-0.00300966057545079
-2.4996875,0.8737736555782486,0.9668018425127828,-0.003007770366528407
-2.499375,0.8756638645006267,0.969630497487018,-0.003004935053144841
-2.4990625,0.8794442823453861,0.9743449224440811,-0.003001154635300081
-2.49875,0.8822795957289581,0.9781164624097333,-0.00299737421745532
-2.4984375,0.885114909112525,0.9800022323925568,-0.002995484008532942
-2.498125,0.8870051180349048,0.9828308873667946,-0.002991703590688183
-2.4978125,0.8898404314184717,0.9866024273324416,-0.002989813381765805
-2.4975,0.8936208492632336,0.9903739672980956,-0.002986032963921044
-2.4971875,0.8945659537244235,0.9913168522895082,-0.002984142754998664
-2.496875,0.8992914760303682,0.9950883922551552,-0.002981307441615098
-2.4965625,0.9011816849527523,0.9979170472293964,-0.002977527023770335
-2.49625,0.9040169983363218,1.000745702203634,-0.002974691710386766
-2.4959375,0.9077974161810811,1.004517242169285,-0.002973746605925576
-2.495625,0.9106327295646506,1.00640301215211,-0.002970911292542007
-2.4953125,0.9134680429482228,1.010174552117762,-0.002968075979158435
-2.495,0.9163033563317897,1.012060322100586,-0.002965240665774868
-2.4946875,0.9200837741765491,1.015831862066236,-0.002962405352391298
-2.494375,0.9219739830989303,1.017717632049065,-0.002960515143468916
-2.4940625,0.9238641920213084,1.021489172014712,-0.002957679830085349
-2.49375,0.9276446098660678,1.025260711980362,-0.002955789621162969
-2.4934375,0.9295348187884457,1.028089366954598,-0.002952009203318213
-2.493125,0.9333152366332067,1.030918021928838,-0.00294822878547345
-2.4928125,0.9361505500167762,1.034689561894488,-0.002945393472089881
-2.4925,0.9389858634003433,1.037518216868724,-0.002942558158706314
-2.4921875,0.9418211767839153,1.041289756834377,-0.002940667949783932
-2.491875,0.9456015946286772,1.043175526817205,-0.002937832636400359
-2.4915625,0.9484369080122441,1.046947066782852,-0.002934052218555603
-2.49125,0.9512722213958136,1.048832836765678,-0.002932162009633223
-2.4909375,0.9550526392405755,1.052604376731331,-0.00292932669624965
-2.490625,0.9578879526241424,1.055433031705566,-0.002925546278404894
-2.4903125,0.9607232660077121,1.058261686679804,-0.002924601173943705
-2.49,0.964503683852468,1.061090341654039,-0.002920820756098949
-2.4896875,0.9673389972360409,1.06391899662828,-0.002917985442715376
-2.489375,0.9711194150808002,1.066747651602517,-0.002915150129331806
-2.4890625,0.9748998329255562,1.069576306576753,-0.00291136971148705
-2.48875,0.9767900418479392,1.072404961550993,-0.002908534398103477
-2.4884375,0.9796253552315086,1.076176501516644,-0.002905699084719908
-2.488125,0.9824606686150783,1.079948041482294,-0.002901918666875149
-2.4878125,0.9843508775374579,1.082776696456532,-0.002897193144569199
-2.4875,0.9871861909210299,1.086548236422185,-0.002894357831185628
-2.4871875,0.9900215043045968,1.08937689139642,-0.00289246762226325
-2.486875,0.9928568176881665,1.093148431362071,-0.002887742099957301
-2.4865625,0.9947470266105486,1.095977086336311,-0.002884906786573728
-2.48625,0.9975823399941155,1.098805741310546,-0.002881126368728972
-2.4859375,1.001362757838875,1.102577281276197,-0.002879236159806593
-2.485625,1.004198071222442,1.106348821241844,-0.002876400846423026
-2.4853125,1.007033384606014,1.108234591224672,-0.002873565533039454
-2.485,1.008923593528394,1.112006131190323,-0.002870730219655884
-2.4846875,1.011758906911961,1.114834786164558,-0.002867894906272317
-2.484375,1.013649115834343,1.117663441138798,-0.002864114488427555
-2.4840625,1.017429533679105,1.12049209611304,-0.002862224279505173
-2.48375,1.020264847062672,1.124263636078687,-0.002859388966121606
-2.4834375,1.024045264907431,1.127092291052925,-0.002856553652738036
-2.483125,1.027825682752192,1.131806716009989,-0.002852773234893277
-2.4828125,1.02971589167457,1.133692485992813,-0.002851828130432087
-2.4825,1.03255120505814,1.137464025958463,-0.002848992817048518
-2.4821875,1.034441413980518,1.140292680932699,-0.002845212399203762
-2.481875,1.038221831825278,1.145007105889764,-0.002843322190281379
-2.4815625,1.039166936286468,1.14689287587259,-0.002839541772436619
-2.48125,1.042947354131224,1.149721530846825,-0.002837651563514241
-2.4809375,1.045782667514797,1.153493070812478,-0.00283387114566948
-2.480625,1.048617980898367,1.156321725786716,-0.002831035832285911
-2.4803125,1.051453294281936,1.160093265752366,-0.002828200518902342
-2.48,1.054288607665506,1.162921920726604,-0.002825365205518772
-2.4796875,1.058069025510267,1.165750575700845,-0.002823474996596389
-2.479375,1.059959234432645,1.169522115666492,-0.002820639683212822
-2.4790625,1.063739652277404,1.173293655632143,-0.002817804369829253
-2.47875,1.066574965660976,1.175179425614971,-0.00281496905644568
-2.4784375,1.069410279044543,1.178008080589206,-0.002811188638600924
-2.478125,1.072245592428113,1.180836735563443,-0.002810243534139735
-2.4778125,1.076026010272869,1.183665390537679,-0.002807408220756168
-2.4775,1.078861323656441,1.186494045511919,-0.002805518011833785
-2.4771875,1.081696637040011,1.189322700486157,-0.002802682698450216
-2.476875,1.084531950423578,1.192151355460392,-0.002799847385066649
-2.4765625,1.08736726380715,1.194980010434633,-0.002797957176144266
-2.47625,1.09020257719072,1.197808665408874,-0.002796066967221883
-2.4759375,1.091147681651909,1.201580205374521,-0.002792286549377128
-2.475625,1.093982995035479,1.204408860348759,-0.002788506131532368
-2.4753125,1.09681830841905,1.208180400314413,-0.002785670818148796
-2.475,1.098708517341428,1.21195194028006,-0.002782835504765229
-2.4746875,1.101543830724998,1.21572348024571,-0.00277905508692047
-2.474375,1.104379144108564,1.218552135219946,-0.002776219773536903
-2.4740625,1.106269353030947,1.221380790194186,-0.002773384460153331
-2.47375,1.110049770875706,1.225152330159836,-0.002769604042308571
-2.4734375,1.111939979798084,1.227980985134072,-0.002768658937847383
-2.473125,1.115720397642845,1.231752525099725,-0.002765823624463812
-2.4728125,1.118555711026415,1.235524065065375,-0.002761098102157863
-2.4725,1.122336128871174,1.238352720039613,-0.002760152997696673
-2.4721875,1.125171442254744,1.240238490022438,-0.002757317684313104
-2.471875,1.128006755638316,1.244010029988092,-0.002754482370929531
-2.4715625,1.130842069021883,1.247781569953739,-0.002751647057545965
-2.47125,1.132732277944262,1.250610224927977,-0.002748811744162395
-2.4709375,1.136512695789024,1.253438879902217,-0.002746921535240013
-2.470625,1.139348009172591,1.256267534876453,-0.002744086221856446
-2.4703125,1.142183322556161,1.260039074842103,-0.002742196012934066
-2.47,1.145018635939727,1.262867729816338,-0.002739360699550499
-2.4696875,1.1478539493233,1.266639269781991,-0.002737470490628117
-2.469375,1.150689262706869,1.269467924756229,-0.002734635177244548
-2.4690625,1.152579471629247,1.272296579730464,-0.002731799863860981
-2.46875,1.156359889474008,1.276068119696117,-0.002728019446016219
-2.4684375,1.15919520285758,1.278896774670358,-0.002725184132632647
-2.468125,1.162030516241147,1.281725429644593,-0.002722348819249079
-2.4678125,1.164865829624717,1.285496969610244,-0.00271951350586551
-2.4675,1.167701143008289,1.288325624584484,-0.002716678192481936
-2.4671875,1.170536456391856,1.291154279558719,-0.002711952670175991
-2.466875,1.172426665314235,1.293982934532957,-0.002709117356792422
-2.4665625,1.176207083158991,1.297754474498604,-0.002707227147870044
-2.46625,1.178097292081374,1.300583129472845,-0.002704391834486473
-2.4659375,1.180932605464944,1.303411784447083,-0.002700611416641714
-2.465625,1.1847130233097,1.30718332441273,-0.002698721207719336
-2.4653125,1.186603232232083,1.310954864378384,-0.002694940789874574
-2.465,1.189438545615652,1.314726404344035,-0.002693050580952195
-2.4646875,1.194164067921602,1.317555059318273,-0.002690215267568625
-2.464375,1.196054276843981,1.32038371429251,-0.002688325058646246
-2.4640625,1.198889590227552,1.324155254258162,-0.002684544640801484
-2.46375,1.20077979914993,1.326041024240986,-0.002682654431879107
-2.4634375,1.2036151125335,1.328869679215224,-0.002679819118495537
-2.463125,1.206450425917071,1.331698334189465,-0.002676983805111964
-2.4628125,1.208340634839449,1.335469874155112,-0.002673203387267208
-2.4625,1.211175948223019,1.33829852912935,-0.002670368073883639
-2.4621875,1.215901470528964,1.341127184103585,-0.002667532760500072
-2.461875,1.218736783912537,1.344898724069238,-0.00266375234265531
-2.4615625,1.221572097296107,1.346784494052063,-0.00265997192481055
-2.46125,1.224407410679674,1.349613149026299,-0.002658081715888173
-2.4609375,1.227242724063246,1.352441804000539,-0.002654301298043412
-2.460625,1.231023141908007,1.35527045897478,-0.002652411089121029
-2.4603125,1.232913350830385,1.358099113949015,-0.002649575775737462
-2.46,1.235748664213954,1.360927768923253,-0.002646740462353893
-2.4596875,1.238583977597527,1.364699308888906,-0.002644850253431511
-2.459375,1.242364395442283,1.367527963863141,-0.002642960044509133
-2.4590625,1.245199708825853,1.370356618837379,-0.002641069835586754
-2.45875,1.247089917748231,1.374128158803026,-0.002638234522203187
-2.4584375,1.249925231131802,1.376013928785855,-0.002636344313280805
-2.458125,1.252760544515371,1.379785468751505,-0.002633508999897235
-2.4578125,1.255595857898938,1.383557008717152,-0.002631618790974857
-2.4575,1.257486066821321,1.387328548682806,-0.002628783477591286
-2.4571875,1.26126648466608,1.390157203657044,-0.002625003059746526
-2.456875,1.264101798049649,1.393928743622694,-0.002623112850824147
-2.4565625,1.266937111433219,1.395814513605519,-0.002619332432979387
-2.45625,1.269772424816791,1.400528938562584,-0.002616497119595815
-2.4559375,1.272607738200358,1.402414708545408,-0.002613661806212249
-2.455625,1.274497947122738,1.405243363519646,-0.002610826492828679
-2.4553125,1.27733326050631,1.408072018493886,-0.002607991179445106
-2.455,1.280168573889877,1.410900673468121,-0.00260421076160035
-2.4546875,1.283003887273446,1.414672213433772,-0.00260137544821678
-2.454375,1.285839200657013,1.418443753399419,-0.002597595030372025
-2.4540625,1.289619618501775,1.42127240837366,-0.002595704821449642
-2.45375,1.292454931885344,1.423158178356485,-0.002591924403604882
-2.4534375,1.295290245268911,1.428815488304956,-0.002589089090221315
-2.453125,1.297180454191294,1.431644143279199,-0.002587198881298933
-2.4528125,1.299070663113676,1.435415683244853,-0.00258436356791536
-2.4525,1.301905976497243,1.4391872232105,-0.002580583150070604
-2.4521875,1.302851080958433,1.44295876317615,-0.002577747836687035
-2.451875,1.304741289880815,1.445787418150391,-0.002575857627764651
-2.4515625,1.307576603264382,1.449558958116038,-0.002572077209919896
-2.45125,1.310411916647952,1.452387613090276,-0.002570187000997516
-2.4509375,1.312302125570329,1.457102038047335,-0.002568296792075138
-2.450625,1.315137438953901,1.458044923038752,-0.002565461478691567
-2.4503125,1.31797275233747,1.46087357801299,-0.002562626165307997
-2.45,1.321753170182226,1.464645117978637,-0.002558845747463242
-2.4496875,1.324588483565799,1.467473772952878,-0.002555065329618479
-2.449375,1.328368901410558,1.470302427927116,-0.002552230016234909
-2.4490625,1.331204214794128,1.474073967892766,-0.002548449598390149
-2.44875,1.334039528177697,1.476902622867004,-0.002544669180545391
-2.4484375,1.33592973710008,1.479731277841245,-0.002542778971623008
-2.448125,1.338765050483647,1.48255993281548,-0.002539943658239441
-2.4478125,1.341600363867216,1.48633147278113,-0.002537108344855872
-2.4475,1.344435677250787,1.488217242763959,-0.002534273031472299
-2.4471875,1.346325886173165,1.491988782729606,-0.002530492613627543
-2.446875,1.349161199556735,1.495760322695256,-0.002527657300243973
-2.4465625,1.352941617401491,1.498588977669492,-0.002526712195782784
-2.44625,1.355776930785064,1.502360517635145,-0.002523876882399214
-2.4459375,1.357667139707443,1.505189172609383,-0.002521986673476835
-2.445625,1.36050245309101,1.50896071257503,-0.002518206255632079
-2.4453125,1.363337766474582,1.511789367549271,-0.002516316046709695
-2.445,1.366173079858154,1.515560907514924,-0.002512535628864934
-2.4446875,1.369008393241721,1.518389562489159,-0.002510645419942557
-2.444375,1.372788811086481,1.52216110245481,-0.002506865002097797
-2.4440625,1.375624124470053,1.52498975742905,-0.002504974793175414
-2.44375,1.37845943785362,1.527818412403285,-0.002501194375330658
-2.4434375,1.381294751237189,1.530647067377523,-0.002497413957485898
-2.443125,1.385075169081945,1.533475722351758,-0.002495523748563521
-2.4428125,1.386965378004328,1.537247262317411,-0.00249268843517995
-2.4425,1.390745795849087,1.539133032300237,-0.00248890801733519
-2.4421875,1.394526213693843,1.541961687274472,-0.002486072703951623
-2.441875,1.397361527077416,1.545733227240125,-0.002483237390568051
-2.4415625,1.400196840460986,1.548561882214363,-0.002480402077184482
-2.44125,1.402087049383365,1.550447652197188,-0.002477566763800912
-2.4409375,1.404922362766935,1.555162077154251,-0.002474731450417343
-2.440625,1.406812571689317,1.557990732128493,-0.00247284124149496
-2.4403125,1.409647885072884,1.562705157085552,-0.002470005928111394
-2.44,1.411538093995264,1.564590927068377,-0.002467170614727824
-2.4396875,1.414373407378835,1.56836246703403,-0.00246433530134425
-2.439375,1.416263616301213,1.571191122008265,-0.002459609779038305
-2.4390625,1.420044034145972,1.574019776982503,-0.002457719570115926
-2.43875,1.422879347529539,1.576848431956739,-0.00245393915227117
-2.4384375,1.425714660913111,1.579677086930979,-0.002451103838887597
-2.438125,1.428549974296681,1.583448626896629,-0.002450158734426407
-2.4378125,1.431385287680248,1.585334396879453,-0.002446378316581651
-2.4375,1.43422060106382,1.588163051853693,-0.002442597898736888
-2.4371875,1.438001018908583,1.590048821836521,-0.002439762585353316
-2.436875,1.441781436753339,1.592877476810756,-0.002436927271969749
-2.4365625,1.444616750136908,1.594763246793581,-0.00243314685412499
-2.43625,1.447452063520482,1.597591901767821,-0.002430311540741417
-2.4359375,1.452177585826427,1.600420556742057,-0.002427476227357851
-2.435625,1.455012899209996,1.602306326724882,-0.002423695809513092
-2.4353125,1.457848212593563,1.604192096707705,-0.002420860496129525
-2.435,1.460683525977135,1.607020751681945,-0.002418970287207143
-2.4346875,1.463518839360705,1.610792291647595,-0.002414244764901193
-2.434375,1.466354152744272,1.613620946621831,-0.002411409451517626
-2.4340625,1.470134570589034,1.616449601596071,-0.002410464347056434
-2.43375,1.472969883972603,1.621164026553134,-0.002406683929211674
-2.4334375,1.475805197356173,1.624935566518785,-0.002403848615828105
-2.433125,1.478640510739742,1.628707106484435,-0.002401013302444536
-2.4328125,1.480530719662125,1.630592876467263,-0.002398177989060963
-2.4325,1.483366033045691,1.634364416432911,-0.002394397571216207
-2.4321875,1.486201346429261,1.638135956398561,-0.002392507362293827
-2.431875,1.489036659812834,1.640964611372802,-0.002389672048910254
-2.4315625,1.49281707765759,1.643793266347037,-0.002385891631065498
-2.43125,1.495652391041159,1.647564806312687,-0.002383056317681929
-2.4309375,1.497542599963537,1.649450576295511,-0.002379275899837172
-2.430625,1.502268122269488,1.654165001252575,-0.002377385690914789
-2.4303125,1.505103435653058,1.656050771235401,-0.00237360527307003
-2.43,1.506993644575435,1.658879426209636,-0.002369824855225274
-2.4296875,1.509828957959007,1.661708081183876,-0.002367934646302891
-2.429375,1.51266427134258,1.664536736158117,-0.002364154228458129
-2.4290625,1.516444689187336,1.667365391132352,-0.002361318915074562
-2.42875,1.519280002570905,1.671136931098002,-0.002358483601690993
-2.4284375,1.522115315954476,1.675851356055067,-0.002355648288307421
-2.428125,1.524005524876854,1.677737126037891,-0.002352812974923854
-2.4278125,1.526840838260424,1.681508666003541,-0.002350922766001474
-2.4275,1.527785942721613,1.685280205969188,-0.002348087452617907
-2.4271875,1.531566360566373,1.689051745934842,-0.002345252139234335
-2.426875,1.533456569488753,1.69188040090908,-0.002342416825850766
-2.4265625,1.53629188287232,1.694709055883315,-0.002339581512467199
-2.42625,1.538182091794702,1.697537710857556,-0.002335801094622436
-2.4259375,1.541962509639461,1.701309250823206,-0.002333910885700057
-2.425625,1.543852718561841,1.705080790788857,-0.002332020676777677
-2.4253125,1.5476331364066,1.708852330754507,-0.002329185363394108
-2.425,1.550468449790172,1.711680985728748,-0.002327295154471725
-2.4246875,1.553303763173739,1.714509640702983,-0.002324459841088159
-2.424375,1.555193972096119,1.717338295677221,-0.002321624527704589
-2.4240625,1.558974389940882,1.720166950651461,-0.002318789214321016
-2.42375,1.562754807785638,1.722995605625696,-0.00231500879647626
-2.4234375,1.564645016708017,1.725824260599934,-0.002312173483092691
-2.423125,1.568425434552773,1.728652915574169,-0.002310283274170313
-2.4228125,1.570315643475156,1.732424455539822,-0.002308393065247931
-2.4225,1.573150956858726,1.73525311051406,-0.002304612647403172
-2.4221875,1.576931374703482,1.737138880496884,-0.002302722438480794
-2.421875,1.578821583625865,1.740910420462536,-0.002299887125097223
-2.4215625,1.581656897009437,1.744681960428189,-0.00229705181171365
-2.42125,1.584492210393004,1.747510615402424,-0.002293271393868894
-2.4209375,1.587327523776573,1.751282155368075,-0.002290436080485324
-2.420625,1.590162837160145,1.754110810342315,-0.002286655662640562
-2.4203125,1.592053046082523,1.75693946531655,-0.002283820349256996
-2.42,1.595833463927282,1.760711005282201,-0.002280985035873426
-2.4196875,1.598668777310849,1.763539660256436,-0.002278149722489859
-2.419375,1.601504090694421,1.766368315230676,-0.002275314409106288
-2.4190625,1.604339404077991,1.769196970204914,-0.002271533991261528
-2.41875,1.608119821922747,1.773911395161973,-0.00226964378233915
-2.4184375,1.610955135306319,1.776740050136215,-0.002265863364494389
-2.418125,1.613790448689889,1.779568705110453,-0.002263973155572009
-2.4178125,1.617570866534648,1.782397360084691,-0.00226113784218844
-2.4175,1.619461075457028,1.785226015058929,-0.00225830252880487
-2.4171875,1.6222963888406,1.788054670033169,-0.002255467215421298
-2.416875,1.625131702224167,1.790883325007405,-0.002252631902037731
-2.4165625,1.627967015607736,1.794654864973055,-0.002250741693115351
-2.41625,1.629857224530119,1.797483519947297,-0.00224696127527059
-2.4159375,1.632692537913686,1.802197944904356,-0.002245071066348212
-2.415625,1.635527851297255,1.805969484870006,-0.002242235752964643
-2.4153125,1.638363164680822,1.808798139844241,-0.002239400439581076
-2.415,1.641198478064394,1.812569679809894,-0.002236565126197504
-2.4146875,1.644033791447964,1.815398334784132,-0.002234674917275124
-2.414375,1.644978895909152,1.818226989758368,-0.002232784708352746
-2.4140625,1.647814209292723,1.821998529724021,-0.002229004290507985
-2.41375,1.650649522676295,1.825770069689674,-0.002226168977124412
-2.4134375,1.653484836059862,1.828598724663909,-0.002222388559279656
-2.413125,1.657265253904621,1.831427379638147,-0.002217663036973707
-2.4128125,1.661045671749382,1.834256034612387,-0.002215772828051325
-2.4125,1.661990776210571,1.837084689586622,-0.002212937514667758
-2.4121875,1.66577119405533,1.83991334456086,-0.002210102201284188
-2.411875,1.668606507438897,1.843684884526507,-0.00220821199236181
-2.4115625,1.671441820822469,1.845570654509336,-0.002205376678978239
-2.41125,1.675222238667228,1.849342194474986,-0.00220254136559467
-2.4109375,1.679947760973173,1.852170849449222,-0.002200651156672292
-2.410625,1.681837969895557,1.85405661943205,-0.002198760947749911
-2.4103125,1.683728178817937,1.856885274406287,-0.002195925634366341
-2.41,1.687508596662696,1.860656814371938,-0.002195925634366341
-2.4096875,1.690343910046266,1.863485469346176,-0.002193090320982771
-2.409375,1.694124327891028,1.866314124320416,-0.002190255007599199
-2.4090625,1.696959641274594,1.869142779294651,-0.002187419694215632
-2.40875,1.698849850196974,1.871028549277477,-0.002185529485293252
